Time (sec),500 nM IL-6,750 nM IL-6,1 uM IL-6,500 nM HSA,750 nM HSA,1 uM HSA
0,0,0,0,0,0,0
3,0.009456667,0.009765833,0.011994167,-0.000656667,0.000665833,-0.011545833
6,0.02083,0.018536667,0.026714167,-0.001,0.001008333,-0.024676667
9,0.033366667,0.02676,0.045183333,-0.002553333,0.001699167,-0.036956667
12,0.045473333,0.035275,0.066518333,-0.001853333,0.001778333,-0.050648333
15,0.058833333,0.043806667,0.089918333,-0.001253333,0.002305833,-0.0645975
18,0.07176,0.0524975,0.113679167,0.000163333,0.0036525,-0.077128333
21,0.085943333,0.060129167,0.138575833,0.001773333,0.006365833,-0.08708
24,0.102163333,0.068144167,0.163718333,0.003516667,0.008825833,-0.094920833
27,0.119503333,0.0764125,0.187981667,0.006076667,0.011605,-0.1020675
30,0.136216667,0.085955,0.212520833,0.007103333,0.014485833,-0.107314167
33,0.155766667,0.09652,0.237905833,0.008763333,0.018173333,-0.1114225
36,0.174983333,0.10993,0.263974167,0.010136667,0.021671667,-0.113949167
39,0.193696667,0.124731667,0.289313333,0.01245,0.025355,-0.1158775
42,0.213326667,0.141386667,0.315296667,0.01391,0.029195833,-0.115570833
45,0.233003333,0.159668333,0.342065833,0.016123333,0.0338075,-0.115303333
48,0.253603333,0.178760833,0.370351667,0.017606667,0.03755,-0.113885833
51,0.273083333,0.201285833,0.399171667,0.01759,0.0415275,-0.11366
54,0.291543333,0.223785833,0.427764167,0.01959,0.045638333,-0.113755833
57,0.308403333,0.246461667,0.455126667,0.020586667,0.049266667,-0.1128625
60,0.324796667,0.270750833,0.480323333,0.02307,0.051931667,-0.113644167
63,0.339373333,0.29531,0.504340833,0.023726667,0.054683333,-0.112635833
66,0.353766667,0.3182,0.528761667,0.024966667,0.0567,-0.11218
69,0.367043333,0.3426775,0.55116,0.02574,0.0582575,-0.111646667
72,0.378783333,0.365028333,0.571325,0.02548,0.061149167,-0.11082
75,0.38878,0.3861075,0.590400833,0.02617,0.062473333,-0.1082775
78,0.397353333,0.4083575,0.6082025,0.02491,0.064138333,-0.106795
81,0.40573,0.427710833,0.6247775,0.02498,0.06427,-0.106258333
84,0.41117,0.44653,0.6389225,0.023046667,0.0660675,-0.10584
87,0.416316667,0.4659725,0.653429167,0.022203333,0.0674075,-0.105270833
90,0.421673333,0.482805,0.666834167,0.02105,0.069356667,-0.103395
93,0.42515,0.4989975,0.679084167,0.020516667,0.070955833,-0.1038525
96,0.42726,0.515295833,0.689555,0.020226667,0.073179167,-0.104035833
99,0.42893,0.530088333,0.699713333,0.020823333,0.074780833,-0.102581667
102,0.43008,0.5452125,0.711051667,0.021493333,0.075570833,-0.101449167
105,0.430826667,0.560048333,0.72076,0.020896667,0.077046667,-0.099128333
108,0.430853333,0.5720525,0.730594167,0.022883333,0.078044167,-0.098074167
111,0.43004,0.584235833,0.740346667,0.025716667,0.0802725,-0.09485
114,0.430393333,0.596535,0.751273333,0.02793,0.081616667,-0.093498333
117,0.429243333,0.6049275,0.761390833,0.031093333,0.083726667,-0.090739167
120,0.428583333,0.612250833,0.772579167,0.032336667,0.086868333,-0.0872075
123,0.428393333,0.619045833,0.783378333,0.035593333,0.089876667,-0.084604167
126,0.428546667,0.624626667,0.792746667,0.03817,0.092404167,-0.081450833
129,0.42822,0.63,0.802298333,0.0413,0.095981667,-0.079550833
132,0.427463333,0.634368333,0.811193333,0.044506667,0.099153333,-0.078734167
135,0.42695,0.638018333,0.821278333,0.049566667,0.102035,-0.0791275
138,0.425923333,0.6413275,0.830040833,0.052853333,0.104478333,-0.078590833
141,0.425063333,0.643903333,0.839136667,0.055026667,0.1070025,-0.07892
144,0.423793333,0.645200833,0.846710833,0.05857,0.10894,-0.0775975
147,0.423806667,0.648309167,0.85385,0.06194,0.1117125,-0.078809167
150,0.423186667,0.651505833,0.859876667,0.06565,0.113700833,-0.0811825
153,0.423553333,0.652800833,0.863771667,0.068393333,0.1156975,-0.082308333
156,0.42304,0.653580833,0.867535,0.071376667,0.117091667,-0.084264167
159,0.422116667,0.653235833,0.8712225,0.0739,0.120031667,-0.086204167
162,0.42302,0.6529075,0.874473333,0.076436667,0.123124167,-0.0862675
165,0.42266,0.6530725,0.876981667,0.076206667,0.126969167,-0.086610833
168,0.42247,0.653671667,0.8775825,0.078733333,0.12921,-0.086174167
171,0.42267,0.6556575,0.878994167,0.081303333,0.13195,-0.087128333
174,0.423143333,0.657634167,0.879766667,0.083093333,0.134448333,-0.087453333
177,0.423736667,0.658454167,0.880820833,0.08261,0.135244167,-0.086315833
180,0.42299,0.659338333,0.88082,0.0833,0.137096667,-0.084593333
183,0.422226667,0.6593375,0.883074167,0.08356,0.1381125,-0.0845225
186,0.42208,0.658825833,0.885011667,0.083776667,0.141556667,-0.083905
189,0.421596667,0.659359167,0.884834167,0.08332,0.142534167,-0.082755833
192,0.420086667,0.661336667,0.8851825,0.08226,0.144173333,-0.0820025
195,0.42001,0.660034167,0.8843025,0.08083,0.144490833,-0.082168333
198,0.42029,0.657606667,0.885658333,0.078716667,0.147075833,-0.083375833
201,0.418423333,0.656151667,0.885266667,0.075936667,0.147889167,-0.083091667
204,0.417043333,0.654710833,0.8864075,0.073456667,0.147698333,-0.082524167
207,0.41663,0.653569167,0.8861725,0.072353333,0.1494325,-0.083804167
210,0.416356667,0.651814167,0.887901667,0.070836667,0.150405,-0.0843975
213,0.416776667,0.6510375,0.888414167,0.0685,0.1505675,-0.08273
216,0.416143333,0.651380833,0.88874,0.06632,0.150449167,-0.082045
219,0.415733333,0.648781667,0.889065833,0.06351,0.150519167,-0.081913333
222,0.415393333,0.6440325,0.888105,0.060543333,0.151538333,-0.0819625
225,0.414783333,0.642041667,0.888784167,0.06036,0.152535,-0.080833333
228,0.41335,0.641410833,0.888233333,0.058533333,0.152365833,-0.0801
231,0.413713333,0.638628333,0.88758,0.057153333,0.15305,-0.080045
234,0.413903333,0.6360975,0.8868075,0.05523,0.155168333,-0.079790833
237,0.411953333,0.633213333,0.887053333,0.052846667,0.155105,-0.078174167
240,0.411,0.631445833,0.886679167,0.049233333,0.155230833,-0.077158333
243,0.408556667,0.628405833,0.885839167,0.048113333,0.1566275,-0.075988333
246,0.407403333,0.624973333,0.886209167,0.045546667,0.158090833,-0.073604167
249,0.406646667,0.624190833,0.887331667,0.044136667,0.158988333,-0.072751667
252,0.406103333,0.62343,0.889589167,0.042716667,0.158535,-0.07131
255,0.406006667,0.62211,0.889569167,0.03972,0.160639167,-0.070173333
258,0.405906667,0.620793333,0.889504167,0.03741,0.162033333,-0.067448333
261,0.404733333,0.619091667,0.889779167,0.035886667,0.163215833,-0.064259167
264,0.404173333,0.616864167,0.889343333,0.03427,0.1636075,-0.0628475
267,0.403346667,0.6152175,0.8889525,0.033713333,0.165044167,-0.05989
270,0.402246667,0.613715,0.888085,0.03498,0.166599167,-0.05622
273,0.401723333,0.6143525,0.888980833,0.03283,0.167651667,-0.05265
276,0.4009,0.61373,0.889004167,0.033113333,0.168795,-0.049995
279,0.400936667,0.613515833,0.889711667,0.033166667,0.170723333,-0.045964167
282,0.40007,0.61347,0.888418333,0.033886667,0.1719925,-0.04166
285,0.39867,0.613249167,0.889648333,0.035783333,0.171390833,-0.037308333
288,0.398093333,0.611595833,0.89032,0.037376667,0.173415,-0.033145833
291,0.398093333,0.609311667,0.890096667,0.038316667,0.174573333,-0.029445
294,0.396516667,0.608663333,0.890689167,0.04087,0.176039167,-0.024545833
297,0.395793333,0.6075725,0.890585,0.044323333,0.1782425,-0.020404167
300,0.395666667,0.60567,0.89065,0.046556667,0.179360833,-0.016823333
303,0.396016667,0.604219167,0.889668333,0.050663333,0.180016667,-0.013823333
306,0.394756667,0.6048325,0.888928333,0.053473333,0.180526667,-0.009235
309,0.392966667,0.604351667,0.888706667,0.057486667,0.180389167,-0.005509167
312,0.392653333,0.603598333,0.888954167,0.062023333,0.182261667,-0.002425
315,0.392693333,0.603585,0.888901667,0.06587,0.183565833,0.001078333
318,0.392433333,0.603326667,0.8892475,0.06934,0.183688333,0.00377
321,0.3912,0.605134167,0.889620833,0.074593333,0.185545,0.0062075
324,0.392636667,0.6040275,0.890075,0.077536667,0.186983333,0.008900833
327,0.392986667,0.604438333,0.890691667,0.078606667,0.187880833,0.010543333
330,0.39251,0.604369167,0.890166667,0.079866667,0.188666667,0.011926667
333,0.391046667,0.6034025,0.888909167,0.081876667,0.1904575,0.012755833
336,0.390906667,0.6019625,0.888613333,0.083593333,0.19103,0.012608333
339,0.389573333,0.600519167,0.888135833,0.08486,0.191900833,0.014010833
342,0.387636667,0.599724167,0.887516667,0.085683333,0.191146667,0.014806667
345,0.384823333,0.597880833,0.8862425,0.086513333,0.192055,0.014739167
348,0.383363333,0.597141667,0.886010833,0.088376667,0.19213,0.0149325
351,0.38284,0.596783333,0.885855833,0.089406667,0.191938333,0.01649
354,0.380776667,0.597246667,0.88493,0.090076667,0.191825833,0.01634
357,0.379666667,0.595030833,0.882591667,0.092436667,0.19178,0.017268333
360,0.379166667,0.594070833,0.882900833,0.095153333,0.191993333,0.015723333
363,0.37841,0.592754167,0.88321,0.09688,0.19305,0.014579167
366,0.377453333,0.592673333,0.882115833,0.099236667,0.1939375,0.013624167
369,0.377463333,0.591286667,0.880675,0.100203333,0.19575,0.011625833
372,0.37654,0.589061667,0.878848333,0.101056667,0.196488333,0.009831667
375,0.377693333,0.587964167,0.878444167,0.101353333,0.197273333,0.008515833
378,0.3775,0.587534167,0.877560833,0.101343333,0.1984225,0.007376667
381,0.376956667,0.584714167,0.876933333,0.101493333,0.198598333,0.005259167
384,0.376856667,0.584065,0.874976667,0.103433333,0.1983225,0.003048333
387,0.377126667,0.585416667,0.874363333,0.102353333,0.19784,0.001285833
390,0.376483333,0.584581667,0.872376667,0.102123333,0.19886,0.000955833
393,0.375923333,0.583750833,0.870670833,0.102616667,0.1993425,-0.000951667
396,0.375326667,0.58176,0.86906,0.103196667,0.199285,-0.002595
399,0.375296667,0.580794167,0.866221667,0.104193333,0.1992125,-0.004205833
402,0.37706,0.5796875,0.864075833,0.105883333,0.200318333,-0.005710833
405,0.376423333,0.578859167,0.861061667,0.107486667,0.199020833,-0.006846667
408,0.376686667,0.577818333,0.857909167,0.108643333,0.1990175,-0.0087275
411,0.37646,0.578025,0.855315,0.108903333,0.198033333,-0.0102875
414,0.376516667,0.576176667,0.854489167,0.108826667,0.198704167,-0.010598333
417,0.374706667,0.574300833,0.853068333,0.11056,0.199178333,-0.012458333
420,0.3752,0.572885833,0.852235,0.1113,0.198325,-0.014334167
423,0.375016667,0.571864167,0.849216667,0.111673333,0.19767,-0.014476667
426,0.376266667,0.57007,0.849071667,0.111586667,0.1984475,-0.016026667
429,0.3763,0.568876667,0.848714167,0.111823333,0.198044167,-0.0169
432,0.37409,0.567445,0.847605,0.110396667,0.196985833,-0.018138333
435,0.373056667,0.5655625,0.846590833,0.10935,0.198155833,-0.020863333
438,0.37308,0.562891667,0.8454125,0.10919,0.196690833,-0.022699167
441,0.372213333,0.562031667,0.8432875,0.108656667,0.197258333,-0.023804167
444,0.3701,0.56057,0.840624167,0.107966667,0.19727,-0.025989167
